#	voltage input for feed and dish responding to plane wave 20 degrees off zenith (in the EW direction)
                       0                  1.3182567e-006
             0.070218689                  1.3875758e-006
              0.14043738                  1.4539708e-006
              0.21065607                  1.5166014e-006
              0.28087476                  1.5745651e-006
              0.35109345                  1.6268976e-006
              0.42131214                  1.6725736e-006
              0.49153083                  1.7105087e-006
              0.56174951                  1.7395612e-006
               0.6319682                  1.7585352e-006
              0.70218689                   1.766184e-006
              0.77240558                  1.7612147e-006
              0.84262427                  1.7422932e-006
              0.91284296                  1.7080502e-006
              0.98306165                  1.6570882e-006
               1.0532803                  1.5879896e-006
                1.123499                  1.4993252e-006
               1.1937177                  1.3896643e-006
               1.2639364                  1.2575855e-006
               1.3341551                  1.1016888e-006
               1.4043738                  9.2060836e-007
               1.4745925                  7.1302673e-007
               1.5448112                  4.7768998e-007
               1.6150299                  2.1342383e-007
               1.6852485                 -8.0849108e-008
               1.7554672                 -4.0609114e-007
               1.8256859                 -7.6313032e-007
               1.8959046                 -1.1526404e-006
               1.9661233                 -1.5751199e-006
                2.036342                 -2.0308706e-006
               2.1065607                 -2.5199749e-006
               2.1767794                 -3.0422734e-006
               2.2469981                 -3.5973413e-006
               2.3172167                  -4.184465e-006
               2.3874354                 -4.8026181e-006
               2.4576541                 -5.4504382e-006
               2.5278728                 -6.1262031e-006
               2.5980915                 -6.8278076e-006
               2.6683102                 -7.5527417e-006
               2.7385289                 -8.2980685e-006
               2.8087476                 -9.0604041e-006
               2.8789663                 -9.8358984e-006
                2.949185                 -1.0620218e-005
               3.0194036                 -1.1408531e-005
               3.0896223                 -1.2195492e-005
                3.159841                 -1.2975236e-005
               3.2300597                 -1.3741366e-005
               3.3002784                  -1.448695e-005
               3.3704971                 -1.5204523e-005
               3.4407158                 -1.5886086e-005
               3.5109345                 -1.6523117e-005
               3.5811532                  -1.710658e-005
               3.6513718                 -1.7626945e-005
               3.7215905                 -1.8074209e-005
               3.7918092                 -1.8437921e-005
               3.8620279                 -1.8707224e-005
               3.9322466                 -1.8870886e-005
               4.0024653                 -1.8917352e-005
                4.072684                 -1.8834798e-005
               4.1429027                  -1.861119e-005
               4.2131214                 -1.8234349e-005
                 4.28334                 -1.7692034e-005
               4.3535587                 -1.6972015e-005
               4.4237774                 -1.6062172e-005
               4.4939961                 -1.4950588e-005
               4.5642148                 -1.3625653e-005
               4.6344335                 -1.2076183e-005
               4.7046522                 -1.0291534e-005
               4.7748709                 -8.2617329e-006
               4.8450896                 -5.9776085e-006
               4.9153083                 -3.4309349e-006
               4.9855269                 -6.1457584e-007
               5.0557456                  2.4773634e-006
               5.1259643                  5.8493794e-006
                5.196183                  9.5044105e-006
               5.2664017                  1.3443674e-005
               5.3366204                  1.7666498e-005
               5.4068391                  2.2170158e-005
               5.4770578                  2.6949708e-005
               5.5472765                  3.1997813e-005
               5.6174951                   3.730459e-005
               5.6877138                  4.2857443e-005
               5.7579325                   4.864091e-005
               5.8281512                  5.4636521e-005
               5.8983699                  6.0822649e-005
               5.9685886                  6.7174391e-005
               6.0388073                  7.3663446e-005
                6.109026                  8.0258014e-005
               6.1792447                  8.6922709e-005
               6.2494633                  9.3618493e-005
                6.319682                   0.00010030262
               6.3899007                   0.00010692863
               6.4601194                   0.00011344632
               6.5303381                   0.00011980178
               6.6005568                   0.00012593746
               6.6707755                   0.00013179222
               6.7409942                   0.00013730148
               6.8112129                   0.00014239734
               6.8814316                   0.00014700879
               6.9516502                   0.00015106193
               7.0218689                    0.0001544802
               7.0920876                   0.00015718472
               7.1623063                   0.00015909463
                7.232525                   0.00016012745
               7.3027437                   0.00016019954
               7.3729624                   0.00015922658
               7.4431811                   0.00015712404
               7.5133998                   0.00015380782
               7.5836184                   0.00014919479
               7.6538371                   0.00014320347
               7.7240558                   0.00013575474
               7.7942745                   0.00012677254
               7.8644932                   0.00011618467
               7.9347119                   0.00010392359
               8.0049306                  8.9927262e-005
               8.0751493                  7.4140029e-005
                8.145368                  5.6513514e-005
               8.2155866                  3.7007544e-005
               8.2858053                  1.5591095e-005
                8.356024                 -7.7567567e-006
               8.4262427                 -3.3045867e-005
               8.4964614                 -6.0274064e-005
               8.5666801                 -8.9426188e-005
               8.6368988                  -0.00012047315
               8.7071175                  -0.00015337099
               8.7773362                     -0.00018806
               8.8475549                  -0.00022446385
               8.9177735                  -0.00026248879
               8.9879922                  -0.00030202285
               9.0582109                  -0.00034293518
               9.1284296                  -0.00038507541
               9.1986483                  -0.00042827311
                9.268867                  -0.00047233736
               9.3390857                  -0.00051705638
               9.4093044                  -0.00056219731
               9.4795231                  -0.00060750612
               9.5497417                  -0.00065270763
               9.6199604                  -0.00069750569
               9.6901791                   -0.0007415835
               9.7603978                  -0.00078460413
               9.8306165                  -0.00082621113
               9.9008352                  -0.00086602945
               9.9710539                  -0.00090366642
               10.041273                  -0.00093871299
               10.111491                  -0.00097074518
                10.18171                  -0.00099932572
               10.251929                   -0.0010240059
               10.322147                   -0.0010443275
               10.392366                   -0.0010598253
               10.462585                   -0.0010700296
               10.532803                   -0.0010744684
               10.603022                   -0.0010726711
               10.673241                    -0.001064171
               10.743459                   -0.0010485089
               10.813678                   -0.0010252366
               10.883897                  -0.00099392068
               10.954116                  -0.00095414606
               11.024334                   -0.0009055204
               11.094553                  -0.00084767807
               11.164772                  -0.00078028449
                11.23499                  -0.00070304055
               11.305209                  -0.00061568704
               11.375428                  -0.00051800924
               11.445646                  -0.00040984147
               11.515865                  -0.00029107165
               11.586084                  -0.00016164585
               11.656302                 -2.1572767e-005
               11.726521                   0.00012907186
                11.79674                   0.00029014104
               11.866958                   0.00046141237
               11.937177                   0.00064258423
               12.007396                   0.00083327206
               12.077615                    0.0010330051
               12.147833                    0.0012412231
               12.218052                    0.0014572743
               12.288271                    0.0016804122
               12.358489                    0.0019097946
               12.428708                    0.0021444821
               12.498927                    0.0023834371
               12.569145                    0.0026255237
               12.639364                    0.0028695085
               12.709583                     0.003114061
               12.779801                    0.0033577561
                12.85002                    0.0035990761
               12.920239                    0.0038364145
               12.990458                    0.0040680792
               13.060676                    0.0042922984
               13.130895                    0.0045072254
               13.201114                    0.0047109457
               13.271332                    0.0049014842
               13.341551                    0.0050768136
                13.41177                    0.0052348632
               13.481988                    0.0053735292
               13.552207                    0.0054906855
               13.622426                    0.0055841954
               13.692644                    0.0056519239
               13.762863                    0.0056917513
               13.833082                    0.0057015869
                 13.9033                    0.0056793842
               13.973519                    0.0056231557
               14.043738                    0.0055309894
               14.113957                     0.005401065
               14.184175                    0.0052316709
               14.254394                    0.0050212218
               14.324613                    0.0047682761
               14.394831                    0.0044715537
                14.46505                    0.0041299538
               14.535269                    0.0037425734
               14.605487                    0.0033087241
               14.675706                    0.0028279504
               14.745925                    0.0023000463
               14.816143                    0.0017250721
               14.886362                    0.0011033702
               14.956581                   0.00043558042
                 15.0268                  -0.00027734607
               15.097018                   -0.0010341335
               15.167237                   -0.0018331695
               15.237456                   -0.0026724951
               15.307674                   -0.0035497951
               15.377893                   -0.0044623913
               15.448112                   -0.0054072367
                15.51833                   -0.0063809121
               15.588549                   -0.0073796248
               15.658768                   -0.0083992091
               15.728986                   -0.0094351294
               15.799205                    -0.010482486
               15.869424                    -0.011536024
               15.939642                    -0.012590141
               16.009861                    -0.013638904
                16.08008                    -0.014676066
               16.150299                    -0.015695081
               16.220517                     -0.01668913
               16.290736                    -0.017651143
               16.360955                    -0.018573831
               16.431173                    -0.019449712
               16.501392                    -0.020271147
               16.571611                    -0.021030376
               16.641829                    -0.021719559
               16.712048                    -0.022330812
               16.782267                    -0.022856261
               16.852485                    -0.023288077
               16.922704                    -0.023618536
               16.992923                    -0.023840063
               17.063142                    -0.023945285
                17.13336                    -0.023927089
               17.203579                    -0.023778677
               17.273798                    -0.023493618
               17.344016                    -0.023065912
               17.414235                    -0.022490044
               17.484454                    -0.021761044
               17.554672                    -0.020874543
               17.624891                    -0.019826832
                17.69511                    -0.018614919
               17.765328                     -0.01723658
               17.835547                    -0.015690418
               17.905766                    -0.013975907
               17.975984                    -0.012093449
               18.046203                     -0.01004441
               18.116422                    -0.007831168
               18.186641                   -0.0054571492
               18.256859                   -0.0029268608
               18.327078                  -0.00024592022
               18.397297                    0.0025789212
               18.467515                    0.0055397603
               18.537734                    0.0086275302
               18.607953                     0.011831994
               18.678171                     0.015141747
                18.74839                     0.018544223
               18.818609                      0.02202571
               18.888827                     0.025571374
               18.959046                     0.029165286
               19.029265                     0.032790466
               19.099483                     0.036428922
               19.169702                     0.040061711
               19.239921                     0.043668999
                19.31014                     0.047230129
               19.380358                     0.050723706
               19.450577                     0.054127679
               19.520796                     0.057419437
               19.591014                     0.060575914
               19.661233                     0.063573695
               19.731452                     0.066389135
                19.80167                     0.068998485
               19.871889                     0.071378018
               19.942108                     0.073504165
               20.012326                     0.075353659
               20.082545                     0.076903678
               20.152764                     0.078131993
               20.222983                     0.079017124
               20.293201                     0.079538492
                20.36342                     0.079676576
               20.433639                     0.079413069
               20.503857                     0.078731038
               20.574076                     0.077615076
               20.644295                     0.076051457
               20.714513                     0.074028286
               20.784732                     0.071535645
               20.854951                     0.068565736
               20.925169                      0.06511301
               20.995388                       0.0611743
               21.065607                      0.05674894
               21.135825                     0.051838866
               21.206044                     0.046448726
               21.276263                      0.04058596
               21.346482                     0.034260876
                 21.4167                     0.027486713
               21.486919                     0.020279686
               21.557138                     0.012659021
               21.627356                    0.0046469655
               21.697575                   -0.0037312076
               21.767794                    -0.012447221
               21.838012                    -0.021469828
               21.908231                    -0.030764869
                21.97845                    -0.040295343
               22.048668                      -0.0500215
               22.118887                    -0.059900958
               22.189106                    -0.069888825
               22.259325                    -0.079937861
               22.329543                    -0.089998638
               22.399762                     -0.10001973
               22.469981                     -0.10994794
               22.540199                     -0.11972848
               22.610418                     -0.12930526
               22.680637                     -0.13862113
               22.750855                     -0.14761815
               22.821074                     -0.15623788
               22.891293                     -0.16442168
               22.961511                     -0.17211104
                23.03173                     -0.17924788
               23.101949                     -0.18577493
               23.172167                     -0.19163601
               23.242386                     -0.19677642
               23.312605                     -0.20114328
               23.382824                     -0.20468588
               23.453042                     -0.20735605
               23.523261                     -0.20910849
                23.59348                     -0.20990114
               23.663698                     -0.20969549
               23.733917                     -0.20845695
               23.804136                     -0.20615515
               23.874354                     -0.20276425
               23.944573                     -0.19826324
               24.014792                     -0.19263622
                24.08501                     -0.18587264
               24.155229                     -0.17796757
               24.225448                     -0.16892188
               24.295667                     -0.15874242
               24.365885                     -0.14744224
               24.436104                     -0.13504062
